"Global_Index", "x_coord", "y_coord", "Pressure", "Pressure_Coefficient", "Skin_Friction_Coefficient_X", "Skin_Friction_Coefficient_Y", "h"
1, -5.000000000000000e+01, -1.500000000000000e+02, 5.623317508503294e-01, 1.124663501700659e+00, -4.791030107907136e-20, -2.117998893815943e-06, 0.000000000000000e+00
203, -4.999605221019080e+01, -1.493716980058324e+02, 5.681168945637916e-01, 1.136233789127583e+00, -2.538150117354434e-08, -2.019689368527290e-06, 0.000000000000000e+00
204, -4.998420946416500e+01, -1.487434952278331e+02, 5.749972430867805e-01, 1.149994486173561e+00, -4.829511548723239e-08, -1.921196975994708e-06, 0.000000000000000e+00
205, -4.996447363202946e+01, -1.481154908665033e+02, 5.808292998654148e-01, 1.161658599730830e+00, -7.091067523142846e-08, -1.880072905911462e-06, 0.000000000000000e+00
206, -4.993684783030087e+01, -1.474877840910115e+02, 5.859994842491426e-01, 1.171998968498285e+00, -8.815847852839924e-08, -1.752379845805331e-06, 0.000000000000000e+00
207, -4.990133642141357e+01, -1.468604740235343e+02, 5.913042998816025e-01, 1.182608599763205e+00, -9.969559063177843e-08, -1.584616036032492e-06, 0.000000000000000e+00
208, -4.985794501303069e+01, -1.462336597236034e+02, 5.968035546042648e-01, 1.193607109208530e+00, -1.098145613701359e-07, -1.453699867942215e-06, 0.000000000000000e+00
209, -4.980668045715863e+01, -1.456074401724628e+02, 6.016706832568901e-01, 1.203341366513780e+00, -1.192550210685847e-07, -1.352217604422578e-06, 0.000000000000000e+00
210, -4.974755084906501e+01, -1.449819142574393e+02, 6.057722573880792e-01, 1.211544514776158e+00, -1.281421023164842e-07, -1.270356083561379e-06, 0.000000000000000e+00
211, -4.968056552600042e+01, -1.443571807563259e+02, 6.086289303430384e-01, 1.217257860686077e+00, -1.342543770012857e-07, -1.182003726460309e-06, 0.000000000000000e+00
212, -4.960573506572390e+01, -1.437333383217848e+02, 6.108185347338602e-01, 1.221637069467720e+00, -1.353642607651656e-07, -1.071518457782332e-06, 0.000000000000000e+00
213, -4.952307128483256e+01, -1.431104854657681e+02, 6.131542876913243e-01, 1.226308575382649e+00, -1.325346240719261e-07, -9.526827475303451e-07, 0.000000000000000e+00
214, -4.943258723689571e+01, -1.424887205439622e+02, 6.152791986276154e-01, 1.230558397255231e+00, -1.258627176812583e-07, -8.283169076674503e-07, 0.000000000000000e+00
215, -4.933429721039340e+01, -1.418681417402558e+02, 6.173362585404081e-01, 1.234672517080816e+00, -1.185223534639201e-07, -7.190505324976657e-07, 0.000000000000000e+00
216, -4.922821672646027e+01, -1.412488470512362e+02, 6.190743444213791e-01, 1.238148688842758e+00, -1.115112643680427e-07, -6.272888523251061e-07, 0.000000000000000e+00
217, -4.911436253643443e+01, -1.406309342707138e+02, 6.204582047934462e-01, 1.240916409586892e+00, -1.012398947983348e-07, -5.307181142654189e-07, 0.000000000000000e+00
218, -4.899275261921234e+01, -1.400145009742797e+02, 6.214690682663612e-01, 1.242938136532722e+00, -8.770924837004604e-08, -4.303357795882407e-07, 0.000000000000000e+00
219, -4.886340617840968e+01, -1.393996445038973e+02, 6.223038722518461e-01, 1.244607744503692e+00, -7.461109825456406e-08, -3.439273711877195e-07, 0.000000000000000e+00
220, -4.872634363932885e+01, -1.387864619525309e+02, 6.228925672025903e-01, 1.245785134405181e+00, -6.175205723433841e-08, -2.683320775743046e-07, 0.000000000000000e+00
221, -4.858158664573370e+01, -1.381750501488138e+02, 6.232081019264768e-01, 1.246416203852954e+00, -4.592251289129316e-08, -1.886679070181814e-07, 0.000000000000000e+00
222, -4.842915805643156e+01, -1.375655056417573e+02, 6.234947017101723e-01, 1.246989403420345e+00, -2.993260430186125e-08, -1.165797967341194e-07, 0.000000000000000e+00
223, -4.826908194166369e+01, -1.369579246855052e+02, 6.235624947612065e-01, 1.247124989522413e+00, -1.236986993487480e-08, -4.578123121483604e-08, 0.000000000000000e+00
224, -4.810138357930430e+01, -1.363524032241338e+02, 6.233481592466351e-01, 1.246696318493270e+00, 5.828678388243589e-09, 2.054336008879549e-08, 0.000000000000000e+00
225, -4.792608945086879e+01, -1.357490368765012e+02, 6.228199969044410e-01, 1.245639993808882e+00, 2.281664518387299e-08, 7.673253860630933e-08, 0.000000000000000e+00
226, -4.774322723733215e+01, -1.351479209211483e+02, 6.222021860111606e-01, 1.244404372022321e+00, 4.214886510232487e-08, 1.354909863926978e-07, 0.000000000000000e+00
227, -4.755282581475768e+01, -1.345491502812526e+02, 6.215676114530347e-01, 1.243135222906069e+00, 6.327958049141213e-08, 1.947545231177789e-07, 0.000000000000000e+00
228, -4.735491524973722e+01, -1.339528195096395e+02, 6.208269882261931e-01, 1.241653976452386e+00, 8.839491992682503e-08, 2.608516769756915e-07, 0.000000000000000e+00
229, -4.714952679464324e+01, -1.333590227738507e+02, 6.197350658849188e-01, 1.239470131769838e+00, 1.144744860709878e-07, 3.243450054018312e-07, 0.000000000000000e+00
230, -4.693669288269371e+01, -1.327678538412742e+02, 6.184372894197246e-01, 1.236874578839449e+00, 1.423171241239510e-07, 3.876415093874617e-07, 0.000000000000000e+00
231, -4.671644712283060e+01, -1.321794060643375e+02, 6.169026458137172e-01, 1.233805291627434e+00, 1.735301695571587e-07, 4.549070036386313e-07, 0.000000000000000e+00
232, -4.648882429441257e+01, -1.315937723657661e+02, 6.151799571782859e-01, 1.230359914356572e+00, 2.035349163698076e-07, 5.140705174858955e-07, 0.000000000000000e+00
233, -4.625386034172291e+01, -1.310110452239099e+02, 6.132488038393111e-01, 1.226497607678622e+00, 2.370268286314757e-07, 5.773569929487202e-07, 0.000000000000000e+00
234, -4.601159236829352e+01, -1.304313166581399e+02, 6.115340628324097e-01, 1.223068125664819e+00, 2.688140902462988e-07, 6.320590980593827e-07, 0.000000000000000e+00
235, -4.576205863104588e+01, -1.298546782143169e+02, 6.093644452619957e-01, 1.218728890523991e+00, 2.933626136103265e-07, 6.664017217999264e-07, 0.000000000000000e+00
236, -4.550529853424979e+01, -1.292812209503358e+02, 6.071666206397036e-01, 1.214333241279407e+00, 3.271430944390798e-07, 7.185145485737128e-07, 0.000000000000000e+00
237, -4.524135262330098e+01, -1.287110354217464e+02, 6.051005089851207e-01, 1.210201017970241e+00, 3.646789561997252e-07, 7.749822303984559e-07, 0.000000000000000e+00
238, -4.497026257831855e+01, -1.281442116674534e+02, 6.025920854279383e-01, 1.205184170855877e+00, 4.011484743433704e-07, 8.253992923810101e-07, 0.000000000000000e+00
239, -4.469207120756319e+01, -1.275808391954984e+02, 5.998022766406994e-01, 1.199604553281399e+00, 4.314959405013489e-07, 8.601770363674288e-07, 0.000000000000000e+00
240, -4.440682244067723e+01, -1.270210069689256e+02, 5.967441088467518e-01, 1.193488217693504e+00, 4.598810403963468e-07, 8.887184776591147e-07, 0.000000000000000e+00
241, -4.411456132174767e+01, -1.264648033917334e+02, 5.935144727965458e-01, 1.187028945593092e+00, 5.076541686793709e-07, 9.515510461714734e-07, 0.000000000000000e+00
242, -4.381533400219318e+01, -1.259123162949142e+02, 5.904764808050794e-01, 1.180952961610159e+00, 5.837224323676475e-07, 1.061787162763180e-06, 0.000000000000000e+00
243, -4.350918773347628e+01, -1.253636329225854e+02, 5.880151695969561e-01, 1.176030339193912e+00, 6.344132150815563e-07, 1.120408848790317e-06, 0.000000000000000e+00
244, -4.319617085964178e+01, -1.248188399182120e+02, 5.839223788392407e-01, 1.167844757678481e+00, 6.457412471482125e-07, 1.107715019972645e-06, 0.000000000000000e+00
245, -4.287633280968262e+01, -1.242780233109247e+02, 5.796314576126939e-01, 1.159262915225388e+00, 7.027509424928262e-07, 1.171425651180158e-06, 0.000000000000000e+00
246, -4.254972408973460e+01, -1.237412685019352e+02, 5.763707241651721e-01, 1.152741448330344e+00, 7.854408133529307e-07, 1.272730554385204e-06, 0.000000000000000e+00
247, -4.221639627510076e+01, -1.232086602510502e+02, 5.725559120014149e-01, 1.145111824002830e+00, 8.428253070275559e-07, 1.328080173876048e-06, 0.000000000000000e+00
248, -4.187640200210708e+01, -1.226802826632865e+02, 5.680995929498736e-01, 1.136199185899747e+00, 8.676516652817105e-07, 1.329959951097576e-06, 0.000000000000000e+00
249, -4.152979495979064e+01, -1.221562191755906e+02, 5.626746517995315e-01, 1.125349303599063e+00, 9.096647159814362e-07, 1.356790924878505e-06, 0.000000000000000e+00
250, -4.117662988142137e+01, -1.216365525436622e+02, 5.573443489959644e-01, 1.114688697991929e+00, 1.000599310220842e-06, 1.452619873518363e-06, 0.000000000000000e+00
251, -4.081696253585920e+01, -1.211213648288866e+02, 5.531993300025815e-01, 1.106398660005163e+00, 1.064306247532983e-06, 1.504286749523701e-06, 0.000000000000000e+00
252, -4.045084971874737e+01, -1.206107373853764e+02, 5.472515698025486e-01, 1.094503139605097e+00, 1.108590212479699e-06, 1.525843525668289e-06, 0.000000000000000e+00
253, -4.007834924354383e+01, -1.201047508471241e+02, 5.417090271980349e-01, 1.083418054396070e+00, 1.176087842306619e-06, 1.576693977160446e-06, 0.000000000000000e+00
254, -3.969951993239177e+01, -1.196034851152697e+02, 5.362540789330106e-01, 1.072508157866021e+00, 1.233938985447433e-06, 1.611592168835593e-06, 0.000000000000000e+00
255, -3.931442160683095e+01, -1.191070193454833e+02, 5.299940432017312e-01, 1.059988086403462e+00, 1.266926380950923e-06, 1.612291104006495e-06, 0.000000000000000e+00
256, -3.892311507835118e+01, -1.186154319354650e+02, 5.223471534077626e-01, 1.044694306815525e+00, 1.304037267003090e-06, 1.617265928454056e-06, 0.000000000000000e+00
257, -3.852566213878947e+01, -1.181288005125655e+02, 5.145183709103779e-01, 1.029036741820756e+00, 1.378895415566705e-06, 1.666798230351926e-06, 0.000000000000000e+00
258, -3.812212555057240e+01, -1.176472019215278e+02, 5.062580748819802e-01, 1.012516149763960e+00, 1.476156043489213e-06, 1.739392243157365e-06, 0.000000000000000e+00
259, -3.771256903680519e+01, -1.171707122123522e+02, 4.971700599513470e-01, 9.943401199026940e-01, 1.587627953418546e-06, 1.823783969525703e-06, 0.000000000000000e+00
260, -3.729705727120911e+01, -1.166994066282874e+02, 4.873282573792500e-01, 9.746565147585000e-01, 1.740937012205633e-06, 1.949869983546966e-06, 0.000000000000000e+00
261, -3.687565586790870e+01, -1.162333595939488e+02, 4.794484406791499e-01, 9.588968813582999e-01, 1.905894825235135e-06, 2.081377384621437e-06, 0.000000000000000e+00
262, -3.644843137107058e+01, -1.157726447035656e+02, 4.718351571692803e-01, 9.436703143385606e-01, 2.002611074505753e-06, 2.132564192585185e-06, 0.000000000000000e+00
263, -3.601545124439535e+01, -1.153173347093598e+02, 4.654606310981820e-01, 9.309212621963641e-01, 2.026249195011390e-06, 2.104113927819206e-06, 0.000000000000000e+00
264, -3.557678386046427e+01, -1.148675015100575e+02, 4.566861047270839e-01, 9.133722094541677e-01, 2.016351831041094e-06, 2.041850604509015e-06, 0.000000000000000e+00
265, -3.513249848994246e+01, -1.144232161395357e+02, 4.465402793021683e-01, 8.930805586043365e-01, 2.101627683443378e-06, 2.075382409623721e-06, 0.000000000000000e+00
266, -3.468266529064026e+01, -1.139845487556047e+02, 4.361667512882703e-01, 8.723335025765406e-01, 2.225205811277764e-06, 2.142859958400373e-06, 0.000000000000000e+00
267, -3.422735529643444e+01, -1.135515686289294e+02, 4.251970413711927e-01, 8.503940827423854e-01, 2.319613564660393e-06, 2.178262126558222e-06, 0.000000000000000e+00
268, -3.376664040605123e+01, -1.131243441320913e+02, 4.136387348341103e-01, 8.272774696682207e-01, 2.369529508548853e-06, 2.169752617643028e-06, 0.000000000000000e+00
269, -3.330059337171259e+01, -1.127029427287909e+02, 4.004001797259853e-01, 8.008003594519706e-01, 2.515604247132367e-06, 2.246051572078641e-06, 0.000000000000000e+00
270, -3.282928778764783e+01, -1.122874309631948e+02, 3.870002085064397e-01, 7.740004170128794e-01, 2.783293035087760e-06, 2.422893225785679e-06, 0.000000000000000e+00
271, -3.235279807847222e+01, -1.118778744494276e+02, 3.766212220014857e-01, 7.532424440029714e-01, 2.972674180173025e-06, 2.522795518750432e-06, 0.000000000000000e+00
272, -3.187119948743449e+01, -1.114743378612105e+02, 3.667680802518360e-01, 7.335361605036720e-01, 2.974130312520339e-06, 2.460414571214495e-06, 0.000000000000000e+00
273, -3.138456806453504e+01, -1.110768849216488e+02, 3.558206173305419e-01, 7.116412346610839e-01, 2.993417106607600e-06, 2.413658381112480e-06, 0.000000000000000e+00
274, -3.089298065451673e+01, -1.106855783931691e+02, 3.409849851427837e-01, 6.819699702855675e-01, 3.091805340090549e-06, 2.429517684735668e-06, 0.000000000000000e+00
275, -3.039651488473028e+01, -1.103004800676083e+02, 3.233432419570581e-01, 6.466864839141162e-01, 3.198151689601680e-06, 2.448711359788599e-06, 0.000000000000000e+00
276, -2.989524915287595e+01, -1.099216507564562e+02, 3.073763641944442e-01, 6.147527283888884e-01, 3.230972437352467e-06, 2.410047515524518e-06, 0.000000000000000e+00
277, -2.938926261462367e+01, -1.095491502812526e+02, 2.889823122488900e-01, 5.779646244977801e-01, 3.317989114426516e-06, 2.410660199089776e-06, 0.000000000000000e+00
278, -2.887863517111339e+01, -1.091830374641408e+02, 2.721608692308209e-01, 5.443217384616419e-01, 3.517897179842283e-06, 2.488966912638477e-06, 0.000000000000000e+00
279, -2.836344745633784e+01, -1.088233701185786e+02, 2.602610495560804e-01, 5.205220991121607e-01, 3.502414350370066e-06, 2.412546769444793e-06, 0.000000000000000e+00
280, -2.784378082440941e+01, -1.084702050402094e+02, 2.444252996359034e-01, 4.888505992718067e-01, 3.464970093130793e-06, 2.323100028056309e-06, 0.000000000000000e+00
281, -2.731971733671347e+01, -1.081235979978929e+02, 2.244650911694448e-01, 4.489301823388896e-01, 3.660948665446593e-06, 2.388363802582445e-06, 0.000000000000000e+00
282, -2.679133974894983e+01, -1.077836037248992e+02, 2.077532274348808e-01, 4.155064548697617e-01, 3.749698242942055e-06, 2.379630864938345e-06, 0.000000000000000e+00
283, -2.625873149806479e+01, -1.074502759102654e+02, 1.910620001465504e-01, 3.821240002931008e-01, 3.705078277689980e-06, 2.286516722599558e-06, 0.000000000000000e+00
284, -2.572197668907532e+01, -1.071236671903174e+02, 1.734965996960715e-01, 3.469931993921431e-01, 3.828572012881794e-06, 2.296801839488325e-06, 0.000000000000000e+00
285, -2.518116008178803e+01, -1.068038291403582e+02, 1.570836863642837e-01, 3.141673727285674e-01, 3.991448791223331e-06, 2.326810663302548e-06, 0.000000000000000e+00
286, -2.463636707741457e+01, -1.064908122665237e+02, 1.452110287369801e-01, 2.904220574739603e-01, 3.900742603223653e-06, 2.208731802492028e-06, 0.000000000000000e+00
287, -2.408768370508575e+01, -1.061846659978068e+02, 1.257887072694228e-01, 2.515774145388456e-01, 3.848061196763994e-06, 2.115489544843402e-06, 0.000000000000000e+00
288, -2.353519660826660e+01, -1.058854386782523e+02, 1.003071178063565e-01, 2.006142356127131e-01, 4.115630589262837e-06, 2.195696209667388e-06, 0.000000000000000e+00
289, -2.297899303107437e+01, -1.055931775593228e+02, 7.946537015986162e-02, 1.589307403197232e-01, 4.281908211590834e-06, 2.215739238836291e-06, 0.000000000000000e+00
290, -2.241916080450158e+01, -1.053079287924368e+02, 6.018132346195012e-02, 1.203626469239002e-01, 4.247925144741313e-06, 2.130913030706175e-06, 0.000000000000000e+00
291, -2.185578833254661e+01, -1.050297374216814e+02, 3.706085247163664e-02, 7.412170494327329e-02, 4.394690839714504e-06, 2.135843272262436e-06, 0.000000000000000e+00
292, -2.128896457825359e+01, -1.047586473766990e+02, 1.247863825478249e-02, 2.495727650956498e-02, 4.654109798107855e-06, 2.190057831829447e-06, 0.000000000000000e+00
293, -2.071877904966416e+01, -1.044947014657502e+02, -9.700515335894508e-03, -1.940103067178902e-02, 4.861392082618077e-06, 2.213414957771298e-06, 0.000000000000000e+00
294, -2.014532178568308e+01, -1.042379413689541e+02, -2.394585729859229e-02, -4.789171459718459e-02, 4.902513077058928e-06, 2.158178771897900e-06, 0.000000000000000e+00
295, -1.956868334186007e+01, -1.039884076317065e+02, -3.216053207872680e-02, -6.432106415745360e-02, 4.730164487680796e-06, 2.011734135898311e-06, 0.000000000000000e+00
296, -1.898895477608999e+01, -1.037461396582771e+02, -5.085776308366259e-02, -1.017155261673252e-01, 4.736041377272806e-06, 1.944323670852658e-06, 0.000000000000000e+00
297, -1.840622763423383e+01, -1.035111757055874e+02, -7.486344127740722e-02, -1.497268825548144e-01, 4.849531764143096e-06, 1.920065454978539e-06, 0.000000000000000e+00
298, -1.782059393566247e+01, -1.032835528771694e+02, -9.816729777976621e-02, -1.963345955595324e-01, 4.955644709691286e-06, 1.890394871609592e-06, 0.000000000000000e+00
299, -1.723214615872578e+01, -1.030633071173063e+02, -1.193321643986485e-01, -2.386643287972970e-01, 5.076670154902999e-06, 1.863827993326476e-06, 0.000000000000000e+00
300, -1.664097722614925e+01, -1.028504732053567e+02, -1.430738205660709e-01, -2.861476411321418e-01, 5.272506572877929e-06, 1.860881068565718e-06, 0.000000000000000e+00
301, -1.604718049036039e+01, -1.026450847502628e+02, -1.618414377722190e-01, -3.236828755444379e-01, 5.397462966386541e-06, 1.829040595994425e-06, 0.000000000000000e+00
302, -1.545084971874728e+01, -1.024471741852423e+02, -1.768450440514818e-01, -3.536900881029636e-01, 5.319556342085039e-06, 1.728428630764075e-06, 0.000000000000000e+00
303, -1.485207907885165e+01, -1.022567727626678e+02, -1.928730154790035e-01, -3.857460309580071e-01, 5.266742373819719e-06, 1.638391008531137e-06, 0.000000000000000e+00
304, -1.425096312349870e+01, -1.020739105491312e+02, -2.179367200977222e-01, -4.358734401954444e-01, 5.435026445461953e-06, 1.616121038394348e-06, 0.000000000000000e+00
305, -1.364759677586615e+01, -1.018986164206957e+02, -2.397165947914973e-01, -4.794331895829946e-01, 5.601341017521287e-06, 1.589244173927133e-06, 0.000000000000000e+00
306, -1.304207531449473e+01, -1.017309180583363e+02, -2.573820017222863e-01, -5.147640034445725e-01, 5.509019522962361e-06, 1.488510753412381e-06, 0.000000000000000e+00
307, -1.243449435824262e+01, -1.015708419435684e+02, -2.759725650903385e-01, -5.519451301806769e-01, 5.526357830107297e-06, 1.418927522547862e-06, 0.000000000000000e+00
308, -1.182494985118611e+01, -1.014184133542663e+02, -2.920978349821028e-01, -5.841956699642056e-01, 5.525488986430509e-06, 1.344925818176278e-06, 0.000000000000000e+00
309, -1.121353804746893e+01, -1.012736563606711e+02, -3.148660858505287e-01, -6.297321717010573e-01, 5.584931468904558e-06, 1.285276851114355e-06, 0.000000000000000e+00
310, -1.060035549610260e+01, -1.011365938215903e+02, -3.400334791800088e-01, -6.800669583600176e-01, 5.715901490823233e-06, 1.239999265753253e-06, 0.000000000000000e+00
311, -9.985499025720209e+00, -1.010072473807876e+02, -3.571217713269056e-01, -7.142435426538112e-01, 5.649767824217852e-06, 1.151512174520159e-06, 0.000000000000000e+00
312, -9.369065729286085e+00, -1.008856374635655e+02, -3.664812038236179e-01, -7.329624076472359e-01, 5.437929043539534e-06, 1.037340443995849e-06, 0.000000000000000e+00
313, -8.751152948763648e+00, -1.007717832735397e+02, -3.863893245546399e-01, -7.727786491092797e-01, 5.425929167407395e-06, 9.645512104768913e-07, 0.000000000000000e+00
314, -8.131858259744021e+00, -1.006657027896066e+02, -4.128054345946218e-01, -8.256108691892435e-01, 5.797675689720580e-06, 9.556409964393148e-07, 0.000000000000000e+00
315, -7.511279456037688e+00, -1.005674127631043e+02, -4.293905567055855e-01, -8.587811134111709e-01, 6.039069838562375e-06, 9.176363963025528e-07, 0.000000000000000e+00
316, -6.889514534231733e+00, -1.004769287151674e+02, -4.373980731384950e-01, -8.747961462769901e-01, 5.810541212472952e-06, 8.083466371632241e-07, 0.000000000000000e+00
317, -6.266661678215037e+00, -1.003942649342761e+02, -4.541751399249889e-01, -9.083502798499778e-01, 5.647561480113343e-06, 7.134529315187385e-07, 0.000000000000000e+00
318, -5.642819243673903e+00, -1.003194344739996e+02, -4.789629695557897e-01, -9.579259391115794e-01, 5.828478994151505e-06, 6.620104477741651e-07, 0.000000000000000e+00
